¸ú×ÙÂ·¾¶3
X(mm), Y(mm), Z(mm)
-2165.20157048268, -1403.96121581644, -108.998261011058
-2154.19665041812, -1403.53989213481, -108.981373282007
-2143.19059323079, -1403.14945491873, -108.962506810005
-2132.18349545189, -1402.78965522469, -108.941677891495
-2121.17544981136, -1402.46025455253, -108.91890214026
-2110.16654685377, -1402.16102436885, -108.894194524323
-2099.1568749864, -1401.89174560517, -108.867569398213
-2088.14652060813, -1401.65220819189, -108.839040533268
-2077.1355682305, -1401.44221062206, -108.808621146
-2066.12410059041, -1401.26155954255, -108.776323924674
-2055.11219875535, -1401.11006937066, -108.742161054237
-2044.09994222176, -1400.98756193405, -108.70614423972
-2033.08740900704, -1400.89386613243, -108.668284728229
-2022.07467573575, -1400.82881761941, -108.628593329628
-2011.06181772041, -1400.79225850276, -108.587080436013
-2000.04890903736, -1400.78403706221, -108.543756040062
-1989.03602259796, -1400.8040074832, -108.498629752324
-1978.02323021566, -1400.85202960551, -108.451710817564
-1967.01060266898, -1400.927968686, -108.403008130173
-1955.99820976093, -1401.0316951742, -108.352530248751
-1944.98612037507, -1401.16308449994, -108.300285409904
-1933.97440252827, -1401.32201687247, -108.246281541292
-1922.96312342072, -1401.50837708995, -108.190526274011
-1911.95234948309, -1401.72205435897, -108.13302695431
-1900.94214642114, -1401.96294212319, -108.073790654726
-1889.93257925806, -1402.2309379007, -108.012824184645
-1878.92371237446, -1402.52594312953, -107.950134100341
-1867.91560954642, -1402.84786302068, -107.885726714516
-1856.90833398147, -1403.19660641843, -107.819608105376
-1845.9019483529, -1403.57208566726, -107.751784125272
-1834.89651483221, -1403.97421648513, -107.682260408929
-1823.89209512015, -1404.40291784273, -107.611042381287
-1812.8887504761, -1404.85811184832, -107.538135264983
-1801.88654174613, -1405.33972363779, -107.463544087485
-1790.88552938979, -1405.84768126976, -107.387273687906
-1779.88577350552, -1406.38191562535, -107.309328723511
-1768.88733385504, -1406.94236031238, -107.229713675937
-1757.89026988656, -1407.52895157373, -107.148432857147
-1746.89464075697, -1408.14162819968, -107.065490415114
-1735.90050535306, -1408.78033144398, -106.980890339276
-1724.90792231183, -1409.44500494347, -106.894636465755
-1713.91695003992, -1410.13559464101, -106.806732482355
-1702.92764673224, -1410.85204871162, -106.717181933363
-1691.94007038975, -1411.59431749162, -106.625988224148
-1680.95427883663, -1412.36235341057, -106.533154625574
-1669.97032973662, -1413.15611092603, -106.438684278243
-1658.98828060884, -1413.97554646073, -106.342580196572
-1648.00818884284, -1414.82061834227, -106.244845272701
-1637.0301117132, -1415.69128674517, -106.145482280263
-1626.05410639346, -1416.587513635, -106.044493878007
-1615.08022996956, -1417.50926271471, -105.941882613284
-1604.10853945281, -1418.45649937288, -105.837650925401
-1593.13909179228, -1419.42919063392, -105.731801148862
-1582.17194388685, -1420.42730510998, -105.624335516483
-1571.20715259673, -1421.45081295472, -105.515256162394
-1560.24477475465, -1422.49968581854, -105.404565124949
-1549.28486717654, -1423.57389680554, -105.292264349515
-1538.32748667194, -1424.67342043181, -105.178355691182
-1527.37269005401, -1425.79823258527, -105.062840917369
-1516.4205341492, -1426.94831048677, -104.945721710348
-1505.47107580657, -1428.12363265251, -104.826999669686
-1494.52437190684, -1429.32417885771, -104.7066763146
-1483.58047937108, -1430.54993010145, -104.584753086243
-1472.63945516921, -1431.80086857258, -104.46123134991
-1461.70135632809, -1433.0769776168, -104.336112397183
-1450.76623993949, -1434.37824170471, -104.209397447997
-1439.83416316769, -1435.7046464008, -104.081087652659
-1428.90518325692, -1437.05617833351, -103.951184093786
-1417.97935753852, -1438.43282516603, -103.819687788202
-1407.0567434379, -1439.83457556809, -103.686599688772
-1396.1373984813, -1441.26141918851, -103.551920686178
-1385.22138030225, -1442.71334662855, -103.415651610651
-1374.30874664802, -1444.19034941599, -103.277793233654
-1363.39955538566, -1445.69241998002, -103.138346269509
-1352.49386450803, -1447.21955162671, -102.997311376991
-1341.59173213955, -1448.77173851524, -102.854689160869
-1330.69321654182, -1450.3489756347, -102.710480173413
-1319.79837611909, -1451.95125878153, -102.564684915855
-1308.90726942351, -1453.57858453757, -102.417303839813
-1298.01995516031, -1455.23095024863, -102.268337348685
-1287.13649219275, -1456.90835400361, -102.117785799001
-1276.256939547, -1458.61079461416, -101.965649501742
-1265.38135641682, -1460.33827159482, -101.811928723627
-1254.50980216811, -1462.09078514365, -101.656623688374
-1243.64233634341, -1463.86833612328, -101.499734577923
-1232.77901865979, -1465.67092600503, -101.341261536006
-1221.91982661991, -1467.4980717641, -101.181235347242
-1211.06430091096, -1469.34676133785, -101.019846709207
-1200.21182955136, -1471.21320299076, -100.857335547066
-1189.36179060089, -1473.09365869531, -100.693938313417
-1178.51355561916, -1474.98443872334, -100.529888347747
-1167.66649274997, -1476.88189586789, -100.365416258057
-1156.81996966256, -1478.78241979252, -100.200750293747
-1145.97335637645, -1480.68243151126, -100.036116709707
-1135.1260279968, -1482.57837800291, -99.8717401214437
-1124.27736738597, -1484.46672696036, -99.7078438513401
-1113.42676779566, -1486.34396167795, -99.5446502659247
-1102.57363548273, -1488.20657607855, -99.3823811041494
-1091.7173923309, -1490.05106988314, -99.2212577965817
-1080.85747849941, -1491.87394392626, -99.0615017753786
-1069.99335511909, -1493.67169562207, -98.9033347748243
-1059.12450705516, -1495.44081458684, -98.7469791221355
-1048.25044575565, -1497.17777842513, -98.5926580181431
-1037.37071220321, -1498.87904868913, -98.4405958073192
-1026.48487998768, -1500.54106702233, -98.2910182364988
-1015.59255851762, -1502.16025151258, -98.1441527007772
-1004.69347467461, -1503.73353691197, -98.0001940386072
-993.787673294722, -1505.25983890291, -97.8592117364222
-982.87527537891, -1506.73852408678, -97.7212467618722
-971.956408766592, -1508.16895046732, -97.5863406593862
-961.031208508303, -1509.55046734405, -97.4545355584637
-950.099817112588, -1510.88241523177, -97.3258741798063
-939.162384804342, -1512.16412578528, -97.2003998411576
-928.219069791211, -1513.39492173037, -97.0781564627735
-917.270038538232, -1514.57411680167, -96.9591885724901
-906.315466050772, -1515.70101568775, -96.8435413103591
-895.355536165883, -1516.77491398413, -96.7312604328093
-884.390441852115, -1517.79509815489, -96.6223923162966
-873.420385517836, -1518.76084550342, -96.5169839604015
-862.445579328103, -1519.67142415297, -96.415082990331
-851.466245530077, -1520.5260930379, -96.3167376587769
-840.482616786965, -1521.32410190613, -96.2219968470877
-829.494936520466, -1522.06469133374, -96.1309100656967
-818.503459261636, -1522.74709275264, -96.0435274537541
-807.508451010072, -1523.37052849193, -95.9598997779122
-796.51018960129, -1523.93421183401, -95.8800784301997
-785.508965082104, -1524.43734708643, -95.804115424926
-774.505080093826, -1524.87912967035, -95.732063394553
-763.498850262985, -1525.25874622668, -95.663975584465
-752.490604599298, -1525.57537474099, -95.5999058465687
-741.480685900517, -1525.82818468829, -95.5399086316545
-730.469451163729, -1526.01633719872, -95.4840389804399
-719.457272002655, -1526.13898524547, -95.4323525132208
-708.444535070403, -1526.19527385606, -95.3849054180511
-697.43164248705, -1526.18434034808, -95.341754437375
-686.419012271394, -1526.10531459101, -95.3029568530124
-675.407078776113, -1525.95731929501, -95.2685704694323
-664.396293125474, -1525.73947032825, -95.2386535952126
-653.38712365468, -1525.450877064, -95.2132650226036
-642.380056349832, -1525.09064275885, -95.192464005104
-631.375595287365, -1524.6578649634, -95.1763102329608
-620.374263071783, -1524.15163596679, -95.1648638064989
-609.376601270324, -1523.57104327634, -95.1581852071925
-598.383170843139, -1522.91517013377, -95.1563352663836
-587.394552567452, -1522.18309606909, -95.159375131566
-576.41134745401, -1521.37389749361, -95.1673662301383
-565.434177154056, -1520.48664833328, -95.1803702305456
-554.463684354917, -1519.52042070335, -95.1984490007266
-543.500533162158, -1518.47428562578, -95.2216645637846
-532.54540946619, -1517.34731379003, -95.2500790508139
-521.599021290992, -1516.13857635854, -95.2837546508068
-510.662099122595, -1514.84714581743, -95.3227535575841
-499.735396214769, -1513.47209687331, -95.3671379136905
-488.819688869279, -1512.01250739663, -95.4169697512134
-477.915776687933, -1510.467459412, -95.4723109294843
-467.024482793587, -1508.83604013579, -95.5332230696401
-456.146654017085, -1507.11734306084, -95.5997674860325
-445.283161047111, -1505.3104690883, -95.6720051144807
-434.434898539793, -1503.41452770595, -95.7499964373891
-423.60278518484, -1501.42863821257, -95.8338014057532
-412.787763724958, -1499.35193098712, -95.9234793581108
-401.990800925257, -1497.18354880176, -96.0190889364963
-391.212887489299, -1494.92264817693, -96.1206879994897
-380.455037918519, -1492.56840077667, -96.2283335324713
-369.718290311702, -1490.11999484208, -96.3420815551978
-359.00370610135, -1487.57663666008, -96.4619870268736
-348.312369723745, -1484.93755206468, -96.5881037488758
-337.645388219706, -1482.20198796746, -96.7204842653402
-327.003890763225, -1479.36921391323, -96.8591797618482
-316.389028115187, -1476.43852365717, -97.0042399624441
-305.80197199983, -1473.40923675854, -97.1557130252858
-295.243914401598, -1470.28070018615, -97.3136454372223
-284.716066780577, -1467.05228993051, -97.4780819076279
-274.219659204877, -1463.72341261656, -97.6490652618619
-263.755939398765, -1460.29350711116, -97.8266363347313
-253.326171720018, -1456.76204607804, -98.0108338670277
-242.931996200187, -1453.12752418377, -98.201760607428
-232.57748553129, -1449.381902706, -98.3999465948443
-222.268000987643, -1445.51452407547, -98.6060943915699
-212.009364448756, -1441.51470860515, -98.8209098076174
-201.80790322429, -1437.37177522442, -99.0451007538968
-191.670496199634, -1433.07506621277, -99.2793758450155
-181.604617600156, -1428.61398378865, -99.5244422348287
-171.618376864022, -1423.97803982174, -99.7810025976681
-161.720552655136, -1419.15691984874, -100.049751171983
-151.920618605039, -1414.14056235371, -100.331368795356
-142.22875792491, -1408.91925392066, -100.626516880676
-132.655863639187, -1403.48374029693, -100.935830318073
-123.213520902797, -1397.82535263728, -101.259909335179
-113.913967766545, -1391.93614718448, -101.599310412739
-104.770030914097, -1385.80905543645, -101.954536430289
-95.7950334256152, -1379.43804046359, -102.326026307332
-87.0026724707031, -1372.81825373101, -102.714144492519
-78.40534051395, -1365.94803750935, -103.119046288207
-70.0066512358556, -1358.83726324777, -103.540115115101
-61.8062619727579, -1351.49954346236, -103.976479517768
-53.8028481547756, -1343.94827819856, -104.427277711934
-45.9942168621456, -1336.19653053968, -104.891665993931
-38.3774216143717, -1328.25693289065, -105.368825187953
-30.9488749207098, -1320.14161630224, -105.857965611679
-23.7044554512596, -1311.8621604942, -106.358330697439
-16.6396076860507, -1303.4295619557, -106.869199427957
-9.74943268348507, -1294.85421737091, -107.389887757174
-3.0287692752411, -1286.14591967028, -107.919749185934
3.52773448938099, -1277.3138641919, -108.458174652629
9.92555943526825, -1268.36666268832, -109.004591884405
16.1702623924305, -1259.31236320038, -109.558464337361
22.2674317068608, -1250.15847412466, -110.119289835343
28.2226503607665, -1240.91199108053, -110.686598999478
34.0414658990786, -1231.57942545005, -111.259953543701
39.7293663601022, -1222.16683369596, -111.838944496623
45.2917614417306, -1212.6798467651, -112.423190397101
50.7339681872028, -1203.12369905497, -113.012335499737
56.061200536695, -1193.50325656173, -113.606048017305
61.2785621594249, -1183.82304394261, -114.204018419499
66.3910420478407, -1174.08727031677, -114.805957801327
71.4035124221836, -1164.29985370076, -115.411596329577
76.3207285568716, -1154.46444403134, -116.020681771926
81.1473301923581, -1144.58444476776, -116.632978110531
85.8878442515787, -1134.66303309988, -117.248264239547
90.5466886245275, -1124.70317881025, -117.866332744417
95.128176821743, -1114.70766185263, -118.486988759752
99.6365233358865, -1104.67908872247, -119.11004890161
104.075849581215, -1094.61990770061, -119.735340269494
108.450190302838, -1084.53242305397, -120.362699513139
112.763500374875, -1074.41880828039, -120.991971958865
117.019661927943, -1064.28111848491, -121.623010790112
121.222491754495, -1054.1213019711, -122.255676277068
125.375748968566, -1043.94121113397, -122.889835049899
129.483142897459, -1033.74261273526, -123.525359410558
133.548341203244, -1023.52719764291, -124.162126677908
137.574978237677, -1013.29659011407, -124.800018561102
141.566663645699, -1003.05235670015, -125.438920556129
145.526991241276, -992.79601485233, -126.078721360426
149.459548188107, -982.529041306215, -126.719312300383
153.36792452618, -972.252880325753, -127.360586766477
157.255723094042, -961.968951889014, -128.002439650541
161.126569905311, -951.678659902146, -128.644766779426
164.984125047681, -941.383400532936, -129.287464338931
168.832094182364, -931.084570762426, -129.930428281419
172.674240734203, -920.783577262191, -130.573553709849
176.514398873775, -910.481845716, -131.216734230264
180.356487406766, -900.180830718745, -131.859861263764
184.204524703133, -889.882026404077, -132.502823307755
188.062644814332, -879.586977973142, -133.145505134885
191.935114945297, -869.297294323305, -133.787786916261
195.826354478234, -859.014662011692, -134.429543253176
199.740955758319, -848.740860823955, -135.070642099217
203.683706892998, -838.477781273432, -135.710943550964
207.659616840943, -828.227444413662, -136.350298481708
211.673943108227, -817.992024424358, -136.988546987517
215.732222405426, -807.773874521986, -137.625516609
219.840304665848, -797.575556861493, -138.261020284588
224.004390876497, -787.399877239487, -138.894853981727
228.231075210204, -777.249925579396, -139.526793941375
232.527392005439, -767.129123403, -140.156593456635
236.900868173995, -757.041279759955, -140.783979089153
241.359581646677, -746.990657425289, -141.408646205168
245.91222646029, -736.982051592271, -142.030253686426
250.568185045928, -727.020883806134, -142.648417638255
255.337608152541, -717.113314525248, -143.262703876595
260.231502583547, -707.266378476295, -143.872618926967
265.26182646259, -697.488147908495, -144.477599210194
270.441591038459, -687.787929996313, -145.076998019374
275.784966704261, -678.176505865428, -145.670069819567
281.308353059798, -668.666998006544, -146.255910543398
287.041557417751, -659.282058434908, -146.832953625722
293.025678779011, -650.054560269081, -147.398934224304
299.306571834258, -641.025818799932, -147.951028950624
305.934833449306, -632.248175266746, -148.485690772694
312.965214398244, -623.788306106845, -148.99843983521
320.454692559303, -615.731036494689, -149.483627375936
328.458246963944, -608.183035154507, -149.934216385359
337.021184098475, -601.274829535972, -150.341683353997
346.167349858442, -595.15819017197, -150.696232396474
355.884600002456, -589.994870924137, -150.98757280965
366.112800036987, -585.934146346965, -151.206402630436
376.742871919104, -583.082873751478, -151.346326018201
387.630577589414, -581.463811543171, -151.406462600782
398.628204070652, -580.963780193015, -151.394634785362
409.628245637559, -581.428806007935, -151.321112386756
420.563497959731, -582.711470473619, -151.195585755529
431.395930989935, -584.682099794844, -151.026494864406
442.106703454498, -587.231536019467, -150.820891941468
452.688849561071, -590.269815271774, -150.58455507461
463.142424969453, -593.723386907268, -150.322185286084
473.471449151641, -597.532149027303, -150.037608192393
483.682036680655, -601.646803147613, -149.733950530409
493.781278620298, -606.026663315238, -149.413784649199
503.776585925076, -610.637903901778, -149.079243122752
513.675313916052, -615.452180354722, -148.732108404645
523.484556463653, -620.4455498113, -148.37388264024
533.211041936077, -625.597626432028, -148.005842070769
542.861089580718, -630.890918280402, -147.629079592628
552.440601204238, -636.310304025545, -147.244538238875
561.955072881806, -641.842617386681, -146.853037694267
571.40961741934, -647.476314896062, -146.455295441912
580.808992014588, -653.201208344252, -146.051943754811
590.1576277785, -659.008247774743, -145.643543448968
599.459659200342, -664.889344189358, -145.230595098461
608.718952471961, -670.837223669717, -144.813548247002
617.93913212391, -676.84530648994, -144.392809028803
627.123605733504, -682.907606238767, -143.968746518161
636.275586659569, -689.01864504754, -143.541698057427
645.398114863144, -695.173381856144, -143.111973759239
654.494075936008, -701.367151279907, -142.67986033829
663.566218486602, -707.595611134315, -142.24562439624
672.617170045637, -713.854697052817, -141.809515259144
681.649451652169, -720.140582931366, -141.371767447703
690.665491276664, -726.449646165018, -140.932602845839
699.667636228313, -732.77843682355, -140.492232621537
708.658164683579, -739.123650058746, -140.050858944629
717.639296463099, -745.482101147281, -139.608676539105
726.613203175107, -751.850702662866, -139.165874101842
735.582017832172, -758.226443343768, -138.722635615074
744.547844044339, -764.606368270925, -138.27914157677
753.512764882776, -770.987560016294, -137.835570170307
762.478851501944, -777.367120451938, -137.39209839288
771.448171607084, -783.742152927288, -136.948903160987
780.422797848204, -790.109744536828, -136.506162410427
789.404816221127, -796.466948202872, -136.064056208093
798.396334554681, -802.810764294708, -135.622767893056
807.399491163657, -809.138121492577, -135.182485265253
816.416463747264, -815.445856585577, -134.743401841347
825.449478614393, -821.730692862884, -134.30571819919
834.500820321293, -827.989216713992, -133.869643435131
843.572841803831, -834.217852009068, -133.435396761238
852.667975095885, -840.412831753042, -133.003209274446
861.788742722726, -846.570166426577, -132.573325934791
870.937769855876, -852.685608323187, -132.146007796529
880.117797319254, -858.754611046657, -131.721534545215
889.331695522111, -864.772283171955, -131.300207404142
898.582479382538, -870.733334852998, -130.882352487677
907.873324275713, -876.632015893046, -130.468324696204
917.207582994039, -882.462043452513, -130.058512269396
926.58880363298, -888.216517133253, -129.653342142683
936.020748196827, -893.887818626242, -129.253286287537
945.507411531475, -899.467492412138, -128.858869261521
955.053039911453, -904.946103089259, -128.470677253659
964.662148175689, -910.313063743302, -128.08936898655
974.339533599146, -915.556428350198, -127.715688930424
984.090283742335, -920.662639164447, -127.350483418438
993.919773849175, -925.616217808466, -126.994720402127
1003.83364698996, -930.399385645266, -126.649513795666
1013.83776643812, -934.991595303484, -126.316153609685
1023.93812393507, -939.368950942298, -125.996143372304
1034.14067865479, -943.503490109665, -125.69124667284
1044.45108799037, -947.36229592165, -125.40354498186
1054.87427033554, -950.906407207154, -125.135509053911
1065.41370891107, -954.089500572002, -124.8900859399
1076.07036057934, -956.856343043208, -124.670802236439
1086.84097362397, -959.141075953386, -124.481880475376
1097.71555103554, -960.865525796897, -124.328357191656
1108.6736548174, -961.938001248797, -124.216174531096
1119.67929863777, -962.259435877226, -124.1518079535
1130.67849420109, -961.765501254994, -124.13958419704
1141.60590577348, -960.419518615424, -124.182107858068
1152.3900037112, -958.203044471286, -124.280842624148
1162.95807093222, -955.119029001456, -124.435889460672
1173.24198894102, -951.192379805919, -124.645927538398
1183.18349660148, -946.46758608816, -124.90834515329
